x,y,depth,temperature,pressure
4834.088875,51.544531250000006,2141.76165,87.940819,215.85747
4855.219725,96.85992075000001,2140.8789000000006,87.911812,215.77092
4876.350575,142.1753075,2141.1222249999996,87.919861,215.79021
4897.48155,187.490695,2142.4257,87.963509,215.90929
4918.61265,232.80608750000002,2144.260875,88.024712,216.07939
4939.74365,278.12148,2146.0950000000003,88.086052,216.24973
4960.874525,323.436865,2147.6463000000003,88.138321,216.39325
4982.005375,368.75224749999995,2149.2023625,88.191238,216.53821
5003.136225,414.06764,2152.0446125000003,88.287041,216.80655
5024.267075000001,459.3830325,2156.952575,88.450829,217.27216
5045.39795,504.6984175,2162.51215,88.636971,217.79987
5066.528824999999,550.0138099999999,2169.2252875000004,88.829239,218.43872
5193.31445,821.90614,2085.6553624999997,86.090454,210.36882
5214.445325000001,867.2215400000001,2088.11725,86.172188,210.6008
5235.576174999999,912.536925,2090.6666499999997,86.230545,210.84068
5256.707025,957.8523100000001,2093.7255875,86.333916,211.13011
5277.838,1003.1677050000001,2096.9799875,86.442421,211.43828
5298.9691250000005,1048.4831,2099.56775,86.528992,211.68251
5320.1001,1093.798475,2100.9352125,86.575508,211.81053
5341.23095,1139.1138500000002,2101.5185249999995,86.594818,211.86327
5362.361825,1184.429275,2101.348325,86.58931,211.84322
5383.492675,1229.744675,2100.6337375,86.566292,211.7706
5404.623525,1275.060025,2103.1630875,86.650055,212.00853
5425.754375,1320.375425,2111.088675,86.913361,212.76305
5446.885249999999,1365.690825,2121.5203125,87.261192,213.75749
5468.016124999999,1411.0062000000003,2132.357025,87.622978,214.79077
5489.147225,1456.3216,2142.853875,87.973839,215.79169
5510.278325,1501.636975,2153.2888625,88.323479,216.78651
5531.409174999999,1546.9523749999998,2163.9223000000006,88.679184,217.8002
5552.54005,1592.2678,2174.1156875,89.020966,218.77208
5573.670900000001,1637.583175,2182.9092625,89.315399,219.61005
5594.80175,1682.89855,2190.05695,89.555779,220.28999
5615.9326249999995,1728.2139499999998,2196.3059125,89.764656,220.88408
5637.063475000001,1773.5293250000002,2202.0340625000003,89.956985,221.42863
5658.19435,1818.844725,2206.7121125000003,90.116768,221.87274
5679.32545,1864.1601249999999,2210.15445,90.233696,222.19925
5700.45655,1909.475475,2213.3473124999996,90.340416,222.50229
5721.5874,1954.790875,2217.4666,90.479439,222.89404
5742.71825,2000.1063,2224.7662875,90.722557,223.59029
5763.849125000001,2045.421675,2234.3358500000004,91.041458,224.50378
5784.979975,2090.7370499999997,2243.0340499999998,91.333138,225.33414
5806.11085,2136.0524749999995,2250.6058375000002,91.586327,226.05652
5827.2417000000005,2181.3678750000004,2256.9391250000003,91.799385,226.66008
5848.37255,2226.683175,2262.1271625,91.973457,227.15405
5869.503674999999,2271.998525,2266.6142875,92.12384,227.58081
5890.634775,2317.3139499999997,2271.2550125,92.279564,228.02171
5911.765625000001,2362.629375,2277.7923,92.497047,228.64359
5932.896475,2407.944825,2286.212675,92.777237,229.4455
5954.02735,2453.2602,2295.6825500000004,93.092789,230.34799
5975.158200000001,2498.57555,2305.3963125,93.417496,231.27393
5996.289049999999,2543.890925,2314.6590875,93.728424,232.15656
6017.419924999999,2589.2063000000003,2323.681,94.031204,233.0159
6038.550775,2634.521725,2332.4093749999997,94.324326,233.84677
6059.681750000001,2679.8371500000003,2340.4135749999996,94.593666,234.60831
6080.81285,2725.1525,2348.713475,94.872749,235.39795
6101.94385,2770.4679000000006,2358.149075,95.188797,236.29477
6123.074725,2815.7832750000007,2367.3962874999997,95.498672,237.17284
6144.205574999999,2861.0986250000005,2376.2515375,95.795082,238.01346
6165.3364249999995,2906.4140500000003,2385.6675124999997,96.109871,238.90733
6186.467275000001,2951.7294750000005,2395.2393875,96.430603,239.81563
6207.59815,2997.044875,2404.299925,96.734756,240.67439
6228.729000000001,3042.3602500000006,2413.7897875,97.052948,241.57288
6249.859975,3087.6756000000005,2424.6997875,97.41864,242.60413
6270.9911,3132.990975,2437.1950375,97.837547,243.784
6292.122075000001,3178.3064000000004,2451.5843125,98.319504,245.14351
6313.252925000001,3223.621825,2467.149825,98.840034,246.61661
6334.383775,3268.9372000000003,2480.1835625000003,99.275665,247.84917
6355.51465,3314.25255,2486.7979125,99.497612,248.46964
6376.645525000001,3359.5679250000003,2488.27465,99.548729,248.60199
6397.7763749999995,3404.8833000000004,2490.9610249999996,99.638405,248.85124
6418.907225,3450.1987250000006,2498.4274374999995,99.885826,249.5571
6440.038199999999,3495.5141500000004,2507.8178374999998,100.19965,250.44604
6461.1693000000005,3540.8295000000003,2517.167625,100.51354,251.32977
6482.300275,3586.1449000000002,2526.3742625,100.82197,252.19751
6503.43115,3631.4602750000004,2534.6589625,101.09977,252.97638
6524.562025,3676.775625,2541.9876,101.3459,253.6633
6545.692874999999,3722.0910500000005,2548.7762000000002,101.57368,254.29813
6566.823724999999,3767.4064750000002,2555.425775,101.79681,254.91798
6587.954575,3812.721875,2562.6523125000003,102.03977,255.59109
6609.08545,3858.0372500000003,2571.7067875000002,102.34294,256.43997
6630.21645,3903.3526,2581.210675,102.66052,257.33121
6651.34755,3948.6679750000003,2590.206,102.96213,258.17386
6672.478525,3993.9834,2600.4323875,103.30359,259.13516
6693.609374999999,4039.2988250000003,2611.7495875,103.68104,260.20114
6714.740225,4084.61425,2621.8928375000005,104.0206,261.15668
6735.871074999999,4129.929675,2629.576375,104.27928,261.87698
6757.00195,4175.245125,2635.2952499999997,104.47231,262.40765
6778.132825000001,4220.56055,2640.4348375,104.64508,262.88141
6799.263674999999,4265.87585,2645.8973749999996,104.82774,263.3837
6820.39465,4311.191049999999,2650.540025,104.9828,263.80606
6841.525750000001,4356.50635,2655.8307,105.16019,264.28577
6862.656750000001,4401.821775,2662.7011125,105.38953,264.91736
6883.7876,4447.137225,2669.7396,105.62769,265.57126
6904.918450000001,4492.45265,2677.8050375000003,105.89609,266.32584
6926.049325000001,4537.768075,2686.550575,106.18683,267.14517
6947.1801749999995,4583.083500000001,2707.870525,106.90785,269.15137
6968.31105,4628.398925,2716.6450499999996,107.20459,269.9751
6989.441900000001,4673.71435,2726.6156874999997,107.53825,270.90714
7010.572875,4719.029775,2740.5043625000003,107.99786,272.21643
7031.703974999999,4764.345225000001,2746.912425,108.21326,272.81601
7052.83495,4809.660524999999,2757.0817875000002,108.55083,273.77002
7073.965825,4854.9757,2768.6482750000005,108.93636,274.85834
7095.096674999999,4900.291025,2781.0602000000003,109.35152,276.02792
7116.22755,4945.60645,2796.468625,109.86581,277.48102
7137.358400000001,4990.921875,2812.2150625,110.39432,278.96576
7158.48925,5036.237300000001,2829.0792250000004,110.96009,280.55527
7179.6201249999995,5081.5527250000005,2847.6976624999998,111.58333,282.30923
7200.7511,5126.86815,2867.085825,112.23274,284.13544
7221.8822,5172.183575,2886.3320625000006,112.87788,285.94757
7243.013174999999,5217.499025000001,2904.6237375,113.49132,287.66898
7264.14405,5262.81445,2922.11325,114.07845,289.31476
7285.2749,5308.1298750000005,2938.6784375,114.63451,290.87274
7306.40575,5353.4452,2952.7944624999996,115.10818,292.19919
7327.536625000001,5398.760375,2963.827575,115.4789,293.23486
7348.667474999999,5444.075674999999,2972.6746125,115.77659,294.06415
7369.798350000001,5489.391124999999,2981.5143875000003,116.07412,294.89249
7390.929325000001,5534.70655,2993.5412499999998,116.47769,296.02097
7412.060425000001,5580.021975,3010.3476125,117.04047,297.59988
7433.191425000001,5625.3374,3027.1705750000006,117.60405,299.1796
7454.322275,5670.652824999999,3040.3255875000004,118.04528,300.41373
7475.453125000001,5715.96825,3051.422475,118.4172,301.4549
7496.583975,5761.283675000001,3061.2355875000003,118.7457,302.37567
7517.71485,5806.599125000001,3069.832875,119.03369,303.18243
7538.845700000001,5851.9145499999995,3077.3187375,119.28448,303.88498
7559.976549999999,5897.22985,3083.3761875,119.48762,304.45334
7581.107424999999,5942.54505,3088.4364,119.65711,304.92834
7602.238525,5987.86035,3092.7825250000005,119.80125,305.33649
4788.77345,72.675446,2141.3084,87.925781,215.81709
4809.9043,117.99083625,2140.2429625,87.890961,215.71277
4831.035275,163.30622,2140.4161999999997,87.896637,215.72522
4852.166375000001,208.62160749999998,2141.7225875,87.940338,215.84457
4873.29735,253.9370025,2143.3638124999998,87.995132,215.99583
4894.428225,299.2524,2144.96985,88.048859,216.14384
4915.559075,344.56778,2146.3668749999997,88.096268,216.27206
4936.68995,389.88316,2148.3608625,88.163704,216.45866
4957.8207999999995,435.19856,2152.0299,88.286209,216.80624
4978.95165,480.51395249999996,2157.0220625,88.452888,217.27986
5000.082525,525.8293375000001,2162.6591875000004,88.641533,217.81464
5021.213375000001,571.144715,2169.0976375,88.856918,218.42662
5042.344475,616.460115,2175.8564375,89.083359,219.06982
5063.475575,661.775515,2182.3058000000005,89.297569,219.68307
5084.606449999999,707.0908850000001,2184.7099,89.333923,219.90857
5211.3916,978.983225,2094.3647374999996,86.381462,211.19215
5232.5227,1024.29861,2097.4199125,86.457031,211.48123
5253.653824999999,1069.614025,2099.4591499999997,86.526207,211.67293
5274.784675,1114.9294249999998,2100.716725,86.570168,211.79034
5295.915525,1160.244775,2101.5364125,86.597015,211.8656
5317.046375,1205.560175,2101.1452,86.584625,211.8243
5338.17725,1250.8755999999998,2100.4133625,86.562218,211.74994
5359.3081,1296.190975,2105.4420999999998,86.727615,212.22729
5380.43895,1341.5063499999999,2117.3123125,87.118767,213.3598
5401.569825,1386.821725,2128.1895999999997,87.481491,214.3969
5422.7008,1432.1371,2136.5654624999997,87.763634,215.19437
5443.831899999999,1477.4525250000002,2145.0766875,88.048874,216.00494
5464.962875,1522.7679249999999,2155.12655,88.385086,216.96275
5486.09375,1568.0832749999997,2166.4428749999997,88.762367,218.0417
5507.224625,1613.398675,2176.8450875,89.110939,219.03342
5528.355475,1658.7141,2185.5732,89.40358,219.86504
5549.486325,1704.0294749999998,2192.860825,89.648598,220.5584
5570.617175000001,1749.34485,2199.279725,89.863098,221.16876
5591.748050000001,1794.660225,2205.1202249999997,90.059128,221.72406
5612.8790500000005,1839.9756000000002,2210.1544625,90.2304,222.20219
5634.01015,1885.2910249999998,2214.1257625,90.364845,222.57922
5655.141124999999,1930.606425,2217.5885375,90.480911,222.90808
5676.271975,1975.9217749999998,2222.0127875,90.630165,223.32895
5697.402825,2021.2371999999998,2229.3570875,90.874466,224.02933
5718.533675000001,2066.5525749999997,2238.2670625,91.171143,224.87965
5739.6645499999995,2111.867925,2245.594825,91.417564,225.57893
5760.795425,2157.18335,2251.7470000000003,91.624435,226.16559
5781.926275,2202.498775,2257.614625,91.821533,226.72464
5803.05725,2247.81415,2262.6958625,91.991867,227.20837
5824.18835,2293.129525,2266.9291749999998,92.134262,227.61084
5845.31935,2338.4449,2271.334925,92.282341,228.02934
5866.450200000001,2383.7602500000003,2277.3924500000003,92.484123,228.60541
5887.58105,2429.075675,2285.129425,92.741684,229.34204
5908.711925,2474.391125,2293.5437,93.022575,230.14371
5929.842775,2519.7065500000003,2302.0541625,93.307671,230.9547
5950.9736250000005,2565.0219,2310.5143875,93.591911,231.76073
5972.104474999999,2610.3372,2319.3702,93.888824,232.60428
5993.2354749999995,2655.652575,2328.4195874999996,94.192314,233.46584
6014.366575000001,2700.968025,2337.1485125,94.48571,234.29657
6035.49755,2746.2834500000004,2346.7872374999997,94.808388,235.21394
6056.628425,2791.598875,2356.8518,95.144966,236.17084
6077.759275,2836.9142500000003,2365.640775,95.439888,237.00523
6098.890149999999,2882.2295500000005,2373.9092749999995,95.716805,237.78978
6120.020999999999,2927.544925,2382.7335875,96.01207,238.62715
6141.151850000001,2972.8603500000004,2392.0534374999997,96.324333,239.51138
6162.282725,3018.175775,2401.242675,96.632576,240.38242
6183.413699999999,3063.4912249999998,2410.6311,96.947739,241.27141
6204.5448,3108.8066000000003,2421.524325,97.31311,242.30148
6225.675775,3154.1219,2434.58875,97.750732,243.53592
6246.8066499999995,3199.4372500000004,2449.9899249999994,98.266037,244.99208
6267.9375,3244.752675,2466.8658124999997,98.829262,246.58997
6289.06835,3290.0681250000002,2480.2455124999997,99.275719,247.85564
6310.199225,3335.3835500000005,2485.6952875,99.459755,248.36545
6331.330075,3380.6989,2485.6168875,99.460083,248.34956
6352.46095,3426.0142,2485.59215,99.461708,248.34061
6373.591925,3471.329575,2490.3668499999994,99.621193,248.79028
6394.723025000001,3516.6450250000003,2499.6800625,99.931427,249.67195
6415.854000000001,3561.96045,2510.3070374999998,100.28661,250.67712
6436.98485,3607.275875,2479.7190249999994,99.261375,247.75906
6479.246575,3697.90655,2537.3104375,101.19108,253.2187
6500.37745,3743.2219250000003,2544.693625,101.43894,253.91013
6521.5082999999995,3788.53735,2552.4612749999997,101.69906,254.6362
6542.63915,3833.852775,2560.985725,101.98459,255.43279
6563.77015,3879.168225,2571.0067,102.31959,256.37399
6584.901249999999,3924.4836,2581.514175,102.67029,257.36115
6606.032225,3969.7989000000002,2590.7864874999996,103.00005,258.2294
6627.163075,4015.11425,2600.3925624999997,103.32116,259.1315
6648.293949999999,4060.429675,2610.3924125,103.65542,260.0723
6669.424799999999,4105.745125,2619.6955625,103.96765,260.94806
6690.555650000001,4151.06055,2627.4666875,104.22928,261.6767
6711.686525000001,4196.375975,2633.4464249999996,104.43372,262.23212
6732.8173750000005,4241.691425,2639.1365499999997,104.62619,262.75833
6753.94835,4287.00685,2645.3226875,104.83157,263.33005
6838.472175000001,4468.268075,2693.5970125000003,106.41263,267.8287
6859.603025,4513.583500000001,2696.9969625000003,106.54725,268.13641
6880.733875000001,4558.898925,2721.0652625000002,107.33863,270.40747
6901.86475,4604.21435,2723.2402749999997,107.41996,270.60605
6922.995625,4649.529775,2727.5156500000003,107.56382,271.00241
6944.1266,4694.845225000001,2732.8732999999997,107.74333,271.50195
6965.2577,4740.16065,2738.2119875000003,107.92158,272.00082
6986.388674999999,4785.4760750000005,2744.6238999999996,108.13631,272.60077
7007.519525,4830.7915,2752.6298749999996,108.40395,273.34973
7028.650375000001,4876.1068000000005,2761.9122,108.71451,274.22095
7049.78125,4921.4220000000005,2773.69915,109.10873,275.33096
7070.912125,4966.737300000001,2788.8419125,109.61395,276.75885
7092.042975,5012.0527250000005,2805.0677875,110.15652,278.28912
7113.173825,5057.36815,2822.098975,110.72723,279.89514
7134.304675000001,5102.683575,2840.927525,111.3588,281.66934
7155.435800000001,5147.999025000001,2861.364575,112.04354,283.59473
7176.566900000001,5193.31445,2881.5310249999998,112.71939,285.49384
7197.697749999999,5238.6298750000005,2900.4167,113.35279,287.27121
7218.828624999999,5283.945325,2919.5450000000005,113.993,289.07153
7239.959475,5329.2607499999995,2937.6677624999998,114.59919,290.77682
7261.090325000001,5374.576174999999,2952.5673499999994,115.09918,292.1774
7282.221175000001,5419.891475,2964.3422874999997,115.49472,293.28268
7303.3520499999995,5465.20665,2973.7614375000003,115.81186,294.16608
7324.482925,5510.521975,2983.3131375000003,116.13351,295.06177
7345.614024999999,5555.8374,2996.5853374999997,116.57935,296.30731
7366.7451249999995,5601.152824999999,3015.67445,117.21746,298.10037
7387.875975000001,5646.46825,3034.4248375,117.84385,299.86151
7409.00685,5691.783675000001,3048.0065625,118.29963,301.13617
7430.137700000001,5737.099125000001,3058.8159125,118.66235,302.15009
7451.26855,5782.4145499999995,3068.2330500000003,118.97781,303.03342
7472.399425,5827.729974999999,3076.6595,119.26008,303.82407
7493.530275000001,5873.045425,3084.2315625,119.51356,304.53448
7514.6611250000005,5918.360850000001,3090.4321250000003,119.72137,305.11612
7535.7921,5963.67615,3095.4211250000003,119.8885,305.58441
7556.9232250000005,6008.99145,3099.3901875,120.02055,305.95712
4722.32715,48.490967,2141.739825,87.940392,215.86804
4743.458025,93.80635875,2140.7531500000005,87.908264,215.76935
4764.588875,139.1217475,2139.9721125,87.882538,215.69081
4785.719975,184.437135,2140.3047625,87.893547,215.71823
4806.8510750000005,229.75252500000002,2141.6751624999997,87.939041,215.8441
4827.981925,275.06792,2143.1314125,87.987602,215.97804
4849.1127750000005,320.3833125,2144.189125,88.023369,216.07364
4870.24365,365.6986925,2145.6116875000002,88.071609,216.20349
4891.374525,411.01408,2148.1600499999995,88.157181,216.44206
4912.505375,456.32947249999995,2151.919,88.282791,216.79767
4933.636225,501.6448725,2156.5675375,88.438148,217.23862
4954.767075000001,546.960265,2161.659825,88.608734,217.72127
4975.898075,592.275635,2167.8636625,88.816452,218.31038
4997.029175,637.5910349999999,2174.9192749999997,89.052879,218.98174
5018.160150000001,682.906435,2182.4626625,89.305183,219.6993
5039.291025,728.2218049999999,2189.8264125,89.551086,220.3997
5060.421874999999,773.537205,2196.9114000000004,89.790283,221.07471
5081.552725,818.8525999999999,2204.7478625,90.01828,221.82092
5229.46925,1136.0602999999999,2103.5092125,86.68718,212.05954
5250.6001,1181.3757,2105.6294375,86.732758,212.25909
5271.73095,1226.691075,2105.6304375,86.734703,212.25517
5292.861825,1272.006475,2106.3250500000004,86.759552,212.31746
5313.992675,1317.3218749999999,2112.9335250000004,86.977417,212.94603
5335.123525,1362.63725,2124.2040125000003,87.348755,214.0213
5356.254499999999,1407.9526500000002,2133.3818375,87.655914,214.89543
5377.385625,1453.2680249999999,2140.2109875,87.886406,215.54453
5398.5166,1498.5834,2147.8752750000003,88.143082,216.27353
5419.64745,1543.8988,2157.935,88.47821,217.23204
5440.778325,1589.2142000000001,2169.059025,88.849304,218.29259
5461.909174999999,1634.529575,2179.1292625,89.186996,219.25226
5483.04005,1679.844975,2187.7837624999997,89.477509,220.07663
5504.170900000001,1725.160375,2195.2758625,89.729233,220.7897
5525.30175,1770.4757749999999,2201.884575,89.950142,221.41833
5546.432749999999,1815.7911750000003,2207.825575,90.149017,221.9832
5567.5638500000005,1861.1065250000001,2213.2937625,90.333199,222.50281
5588.6948250000005,1906.4219249999999,2217.748575,90.4841,222.92592
5609.825674999999,1951.7373249999998,2221.6359249999996,90.615013,223.29546
5630.95655,1997.0527000000002,2226.6225375000004,90.781448,223.77019
5652.0874,2042.368125,2233.36005,91.006897,224.41234
5673.21825,2087.6835,2240.1279875,91.234085,225.05769
5694.349125000001,2132.9988249999997,2245.6598125000005,91.42054,225.58514
5715.479975,2178.314225,2251.2610124999997,91.608215,226.11916
5736.61095,2223.6296500000003,2257.0927375,91.803154,226.67488
5757.742050000001,2268.945075,2262.3764,91.981163,227.17776
5778.873050000001,2314.2605,2266.929225,92.135002,227.61067
5800.003925,2359.575875,2271.5177875,92.288513,228.04683
5821.134775,2404.8912,2277.271025,92.480438,228.59389
5842.265625000001,2450.2065500000003,2284.3634375,92.716576,229.26894
5863.396475,2495.521975,2292.0303750000003,92.972481,229.99918
5884.52735,2540.8374,2299.7507625000003,93.231483,230.7345
5905.658200000001,2586.152825,2307.444975,93.489792,231.46738
5926.789175,2631.4682000000003,2315.8235,93.770935,232.26538
5947.9203,2676.7835,2325.0189375,94.0793,233.14095
5969.051275,2722.098875,2334.736225,94.405006,234.06596
5990.182125,2767.414325,2345.06275,94.750076,235.04883
6011.312974999999,2812.7297500000004,2354.539125,95.066963,235.94986
6032.44385,2858.045175,2362.1500625,95.322983,236.67203
6053.574725,2903.360525,2369.3678374999995,95.565407,237.35599
6074.705574999999,2948.6758250000003,2377.5805625000003,95.840111,238.13477
6095.8364249999995,2993.9912249999998,2386.593575,96.14164,238.98969
6116.9674,3039.3066500000004,2396.049,96.458191,239.88611
6138.0985,3084.6220749999998,2405.805025,96.785477,240.81052
6159.229474999999,3129.9375,2416.971075,97.160217,241.86755
6180.36035,3175.252875,2430.5191375,97.61425,243.14865
6201.491225,3220.5681999999997,2446.3957499999997,98.145706,244.65091
6222.622075000001,3265.8835500000005,2463.462525,98.715477,246.26704
6243.752925000001,3311.198975,2476.0269125,99.135628,247.45537
